gretl versión 1.9.91cvs
copyright de Ramu Ramanathan, Allin Cottrell y Riccardo "Jack" Lucchetti
Esto es software libre sin ABSOLUTAMENTE NINGUNA GARANTÍA
Sesión actual: 2014-07-14 15:40
? run csvtest.inp
 /home/cottrell/stats/test-gretl/csv/csvtest.inp
? open abfoo.csv
aplicando /home/cottrell/stats/test-gretl/csv/abfoo.csv...
usando como delimitador ' '
   línea más larga: 58 caracteres
   primer campo: 'YEAR'
...parece ser una etiqueta de observación
   número de columnas = 5
   número de variables: 4
...número de observaciones que no están en blanco: 28
escaneando para obtener los nombres de las variables...
   línea: YEAR n w k ys
escaneando para las etiquetas de fila y los datos...
   etiqueta de la primera fila "1976", última etiqueta "1984"
tratando de aplicar etiquetas de filas como fechas...
   1976: probablemente un año... y sólo un año
   pero las fechas no están completas y son consistentes
tratando estos como datos sin fecha

Listando 5 variables:
  0) const    1) n        2) w        3) k        4) ys     

? print --byobs

                n            w            k           ys

1976                                                    
1977     1,617604     2,576543    -0,528650     4,561294
1978     1,722767     2,509746    -0,459182     4,578384
1979     1,612433     2,552526    -0,389936     4,601245
1980     1,550749     2,624951    -0,482724     4,610656
1981     1,409278     2,659539    -0,678062     4,600741
1982     1,152469     2,699218    -0,860620     4,591224
1983     1,077048     2,623102    -0,936493     4,605471
1984                                                    
1976                                                    
1977     4,267163     2,694012     2,829459     4,561294
1978     4,257639     2,646430     2,847360     4,578384
1979     4,261524     2,704939     2,864558     4,601245
1980     4,277097     2,740259     2,871155     4,610656
1981     4,299854     2,784820     2,816205     4,600741
1982     4,282469     2,780768     2,787902     4,591224
1983     4,227096     2,791478     2,854722     4,605471
1984                                                    
1976     0,432432     3,370529    -0,429246     4,651733
1977     0,369492     3,246394    -0,378921     4,677296
1978     0,354172     3,317366    -0,343195     4,690603
1979     0,363253     3,367809    -0,407968     4,714554
1980     0,337186     3,342056    -0,521550     4,605170
1981     0,285179     3,415344    -0,743599     4,599117
1982     0,175633     3,419577    -0,866787     4,598076
1983     0,127513     3,429659    -0,995063     4,673697
1984     0,088926     3,422443    -1,014731     4,731425

? open acceptable.csv
aplicando /home/cottrell/stats/test-gretl/csv/acceptable.csv...
usando como delimitador ','
   línea más larga: 22 caracteres
   primer campo: 'Conc'
   número de columnas = 2
   número de variables: 2
...número de observaciones que no están en blanco: 10
escaneando para obtener los nombres de las variables...
   línea: Conc,C39938
escaneando para las etiquetas de fila y los datos...
tratando estos como datos sin fecha

Listando 3 variables:
  0) const     1) Conc      2) C39938  

? print --byobs

          Conc       C39938

1    -12,00000       110,75
2     -7,80076       120,00
3     -7,30080       116,00
4     -6,80084       122,00
5     -6,30088       116,50
6     -5,80092       116,50
7     -5,30095       109,00
8     -4,80099       110,00
9     -4,30103        97,00

? open brazil.csv
aplicando /home/cottrell/stats/test-gretl/csv/brazil.csv...
usando como delimitador ','
   línea más larga: 24 caracteres
   primer campo: 'price;sqft;bedrm'
   número de columnas = 1
   ...pero la fila 2 tiene 3 campos: abortando
usando como delimitador ';'
   línea más larga: 24 caracteres
   primer campo: 'price'
   número de columnas = 4
   número de variables: 4
...número de observaciones que no están en blanco: 15
escaneando para obtener los nombres de las variables...
   línea: price;sqft;bedrms;baths
escaneando para las etiquetas de fila y los datos...
tratando estos como datos sin fecha

Listando 5 variables:
  0) const     1) price     2) sqft      3) bedrms    4) baths   

? print --byobs

          price         sqft       bedrms        baths

 1        199,9         1065            3         1,75
 2        228,0         1254            3         2,00
 3        235,0         1300            3         2,00
 4        285,0         1577            4         2,50
 5        239,0         1600            3         2,00
 6        293,0         1750            4         2,00
 7        285,0         1800            4         2,75
 8        365,0         1870            4         2,00
 9        295,0         1935            4         2,50
10        290,0         1948            4         2,00
11        385,0         2254            4         3,00
12        505,0         2600            3         2,50
13        425,0         2800            4         3,00
14        415,0         3000            4         3,00

? open comma.csv
aplicando /home/cottrell/stats/test-gretl/csv/comma.csv...
usando como delimitador ','
   línea más larga: 43 caracteres
   primer campo: 'obs'
...parece ser una etiqueta de observación
   número de columnas = 5
   número de variables: 4
...número de observaciones que no están en blanco: 157
escaneando para obtener los nombres de las variables...
   línea: obs,yield10yr,urate_recent,ulc_blc,ulc_bva
escaneando para las etiquetas de fila y los datos...
   etiqueta de la primera fila "1970Q1", última etiqueta "2008Q4"
tratando de aplicar etiquetas de filas como fechas...
   1970: probablemente un año... trimestre 1?
tomando la información sobre fechas desde las etiquetas de filas

Listando 5 variables:
  0) const           1) yield10yr       2) urate_recent    3) ulc_blc       
  4) ulc_bva       

? print --byobs

          yield10yr urate_recent      ulc_blc      ulc_bva

1970:1         7,92                                       
1970:2         8,25                                       
1970:3         8,38                                       
1970:4         8,34                                       
1971:1         7,86                                       
1971:2         7,93                                       
1971:3         8,03                                       
1971:4         7,85                                       
1972:1         7,59                                       
1972:2         7,55                                       
1972:3         7,58                                       
1972:4         7,81                                       
1973:1         7,98                                       
1973:2         8,31                                       
1973:3         8,60                                       
1973:4         8,72                                       
1974:1         9,34                                       
1974:2        10,06                                       
1974:3        10,70                                       
1974:4        10,59                                       
1975:1         9,90                                       
1975:2         9,56                                       
1975:3         9,44                                       
1975:4         9,29                                       
1976:1         9,43                                       
1976:2        10,10                                       
1976:3        10,33                                       
1976:4        10,44                                       
1977:1        10,31                                       
1977:2        10,22                                       
1977:3        10,08                                       
1977:4         9,98                                       
1978:1         9,72                                       
1978:2         9,58                                       
1978:3         9,58                                       
1978:4         9,77                                       
1979:1         9,73                                       
1979:2        10,18                                       
1979:3        10,60                                       
1979:4        11,13                                       
1980:1        12,09                                       
1980:2        12,31                                       
1980:3        12,25                                       
1980:4        12,84                                       
1981:1        13,36                                       
1981:2        14,52                                       
1981:3        15,22                                       
1981:4        15,10                                       
1982:1        14,78                                       
1982:2        14,52                                       
1982:3        14,27                                       
1982:4        13,68                                       
1983:1        13,00                                       
1983:2        12,94                                       
1983:3        13,13                                       
1983:4        13,09                                       
1984:1        12,61                                       
1984:2        12,51                                       
1984:3        12,21                                       
1984:4        11,42                                       
1985:1        10,95                                       
1985:2        10,84                                       
1985:3        10,67                                       
1985:4        10,29                                       
1986:1         9,77                                       
1986:2         8,60                                       
1986:3         8,40                                       
1986:4         8,47                                       
1987:1         8,47                                       
1987:2         8,69                                       
1987:3         9,47                                       
1987:4         9,61                                       
1988:1         8,99                                       
1988:2         8,88                                       
1988:3         9,03                                       
1988:4         8,98                                       
1989:1         9,40                                       
1989:2         9,63                                       
1989:3         9,60                                       
1989:4        10,09                                       
1990:1        10,81                                       
1990:2        10,79                                       
1990:3        10,89                                       
1990:4        10,98                                       
1991:1        10,55                                       
1991:2        10,05                                       
1991:3        10,14                                       
1991:4         9,89                                       
1992:1         9,58                                       
1992:2         9,68                                       
1992:3        10,05                                       
1992:4        10,01                                       
1993:1         9,42                                       
1993:2         8,99                                       
1993:3         7,98                                       
1993:4         7,31                                       
1994:1         6,97                                       
1994:2         7,86                                       
1994:3         8,73                                       
1994:4         9,14                                       
1995:1         9,32                    771804      1288440
1995:2         8,93                    826476      1328480
1995:3         8,51                    817232      1314629
1995:4         8,15                    919572      1362232
1996:1         7,64                    805306      1304510
1996:2         7,54                    857634      1347454
1996:3         7,28                    844467      1339636
1996:4         6,47                    938762      1386532
1997:1         6,20                    816055      1319359
1997:2         6,22                    868281      1387003
1997:3         5,81                    844624      1376212
1997:4         5,60                    953053      1433123
1998:1         5,12                    827303      1376100
1998:2         4,99                    886565      1419056
1998:3         4,56                    869706      1413125
1998:4         4,15                    990098      1459206
1999:1         3,99         9,70       865595      1403201
1999:2         4,26         9,47       929534      1453033
1999:3         5,05         9,27       910479      1451140
1999:4         5,32         9,00      1030869      1514882
2000:1         5,62         8,70       912329      1473903
2000:2         5,42         8,43       975296      1515806
2000:3         5,44         8,27       955905      1502429
2000:4         5,27         8,07      1078174      1561437
2001:1         4,99         8,03       954800      1517827
2001:2         5,19         8,00      1017755      1549196
2001:3         5,12         8,00       993123      1527511
2001:4         4,81         8,03      1118593      1579898
2002:1         5,14         8,13       990251      1520721
2002:2         5,26         8,23      1054598      1569889
2002:3         4,76         8,33      1025194      1549262
2002:4         4,54         8,47      1149786      1597270
2003:1         4,15         8,73      1015529      1535712
2003:2         3,96         8,83      1083262      1571057
2003:3         4,17         8,90      1055103      1559351
2003:4         4,37         8,90      1182022      1616009
2004:1         4,15         8,90      1049316      1567422
2004:2         4,36         9,00      1120174      1614628
2004:3         4,21         8,87      1078903      1594020
2004:4         3,85         8,80      1214100      1650711
2005:1         3,67         8,80      1077227      1584194
2005:2         3,41         8,63      1150858      1651258
2005:3         3,26         8,43      1108752      1623267
2005:4         3,42         8,30      1255544      1677234
2006:1         3,56         8,10      1116204      1635353
2006:2         4,05         7,83      1199517      1687990
2006:3         3,97         7,77      1154171      1666666
2006:4         3,86         7,60      1300315      1729640
2007:1         4,08         7,23      1166144      1689518
2007:2         4,43         6,97      1249216      1736150
2007:3         4,47         7,03      1200266      1713970
2007:4         4,34         7,23      1360974      1773308
2008:1         4,15         7,20      1222426      1720689
2008:2         4,51         7,37      1308630      1771722
2008:3         4,61         7,47                          
2008:4         4,21                                       

? open data3-6.csv
aplicando /home/cottrell/stats/test-gretl/csv/data3-6.csv...
usando como delimitador ','
   línea más larga: 10 caracteres
   primer campo: 'obs'
...parece ser una etiqueta de observación
   número de columnas = 2
   número de variables: 1
...número de observaciones que no están en blanco: 9
escaneando para obtener los nombres de las variables...
   línea: obs,Ct
escaneando para las etiquetas de fila y los datos...
   etiqueta de la primera fila "1959", última etiqueta "1966"
tratando de aplicar etiquetas de filas como fechas...
   1959: probablemente un año... y sólo un año
tomando la información sobre fechas desde las etiquetas de filas

Listando 2 variables:
  0) const    1) Ct     

? print --byobs

               Ct

1959         7876
1960         7926
1961         7954
1962         8220
1963         8434
1964         8817
1965         9257
1966         9674

? open data4-1.csv
aplicando /home/cottrell/stats/test-gretl/csv/data4-1.csv...
usando como delimitador ';'
   línea más larga: 24 caracteres
   primer campo: 'price'
   número de columnas = 4
   número de variables: 4
...número de observaciones que no están en blanco: 15
escaneando para obtener los nombres de las variables...
   línea: price;sqft;bedrms;baths
escaneando para las etiquetas de fila y los datos...
tratando estos como datos sin fecha

Listando 5 variables:
  0) const     1) price     2) sqft      3) bedrms    4) baths   

? print --byobs

          price         sqft       bedrms        baths

 1        199,9         1065            3         1,75
 2        228,0         1254            3         2,00
 3        235,0         1300            3         2,00
 4        285,0         1577            4         2,50
 5        239,0         1600            3         2,00
 6        293,0         1750            4         2,00
 7        285,0         1800            4         2,75
 8        365,0         1870            4         2,00
 9        295,0         1935            4         2,50
10        290,0         1948            4         2,00
11        385,0         2254            4         3,00
12        505,0         2600            3         2,50
13        425,0         2800            4         3,00
14        415,0         3000            4         3,00

? open data9-7.csv
aplicando /home/cottrell/stats/test-gretl/csv/data9-7.csv...
usando como delimitador ','
   línea más larga: 23 caracteres
   primer campo: 'obs;QNC;PRICE;IN'
   número de columnas = 1
   ...pero la fila 2 tiene 3 campos: abortando
usando como delimitador ';'
   línea más larga: 23 caracteres
   primer campo: 'obs'
...parece ser una etiqueta de observación
   número de columnas = 4
   número de variables: 3
...número de observaciones que no están en blanco: 9
escaneando para obtener los nombres de las variables...
   línea: obs;QNC;PRICE;INCOME
escaneando para las etiquetas de fila y los datos...
   etiqueta de la primera fila "1975Q1", última etiqueta "1976Q4"
tratando de aplicar etiquetas de filas como fechas...
   1975: probablemente un año... trimestre 1?
tomando la información sobre fechas desde las etiquetas de filas

Listando 4 variables:
  0) const     1) QNC       2) PRICE     3) INCOME  

? print --byobs

                QNC        PRICE       INCOME

1975:1         1923         60,2        8,985
1975:2         2165         62,9        9,176
1975:3         2198         62,8        9,167
1975:4         2328         63,9        9,307
1976:1         2381         65,4        9,376
1976:2         2788         66,2        9,439
1976:3         2416         66,6        9,474
1976:4         2513         68,6        9,454

? open gpdata.csv
aplicando /home/cottrell/stats/test-gretl/csv/gpdata.csv...
usando como delimitador ' '
   línea más larga: 28 caracteres
   primer campo: '0.0000000000'
   número de columnas = 2
   número de variables: 2
...número de observaciones que no están en blanco: 4
escaneando para obtener los nombres de las variables...
   línea: 0.0000000000 0.0000000000
Parece que no hay nombres de variables
escaneando para las etiquetas de fila y los datos...
tratando estos como datos sin fecha

Listando 3 variables:
  0) const    1) v1       2) v2     

? print --byobs

            v1           v2

1     0,000000     0,000000
2    -2,647298    -2,878477
3    -2,593737    -2,748109
4    -2,442490    -2,652407

? open ifs.csv
aplicando /home/cottrell/stats/test-gretl/csv/ifs.csv...
usando como delimitador ','
   línea más larga: 106 caracteres
   primer campo: 'M1 1957'
   número de columnas = 4
   número de variables: 4
...número de observaciones que no están en blanco: 636
escaneando para obtener los nombres de las variables...
   línea: M1 1957,0.958,13.640,14.157
Parece que no hay nombres de variables
escaneando para las etiquetas de fila y los datos...
   etiqueta de la primera fila "M1 1957", última etiqueta "M12 2009"
tratando de aplicar etiquetas de filas como fechas...
   1957: probablemente un año... mes 01?
tomando la información sobre fechas desde las etiquetas de filas

Listando 4 variables:
  0) const    1) v1       2) v2       3) v3     

? print --byobs

                  v1           v2           v3

1957:01        0,958       13,640       14,157
1957:02        0,958       13,669       14,216
1957:03        0,956       13,669       14,245
1957:04        0,958       13,713       14,289
1957:05        0,956       13,728       14,333
1957:06        0,953       13,786       14,407
1957:07        0,948       13,816       14,480
1957:08        0,951       13,903       14,495
1957:09        0,965       13,977       14,510
1957:10        0,959       13,991       14,510
1957:11        0,968       13,977       14,569
1957:12        0,985       13,962       14,569
1958:01        0,982       13,991       14,657
1958:02        0,979       14,021       14,672
1958:03        0,975       14,094       14,774
1958:04        0,970       14,196       14,804
1958:05        0,964       14,182       14,804
1958:06        0,959       14,182       14,819
1958:07        0,962       14,138       14,848
1958:08        0,973       14,196       14,819
1958:09        0,976       14,240       14,819
1958:10        0,969       14,284       14,819
1958:11        0,966       14,328       14,848
1958:12        0,964       14,314       14,819
1959:01        0,969       14,299       14,833
1959:02        0,973       14,255       14,819
1959:03        0,968       14,226       14,819
1959:04        0,962       14,226       14,848
1959:05        0,962       14,240       14,863
1959:06        0,955       14,167       14,921
1959:07        0,959       14,270       14,966
1959:08        0,952       14,328       14,951
1959:09        0,948       14,416       14,995
1959:10        0,947       14,519       15,039
1959:11        0,949       14,548       15,054
1959:12        0,953       14,504       15,039
1960:01        0,953       14,460       15,024
1960:02        0,951       14,431       15,054
1960:03        0,957       14,387       15,054
1960:04        0,966       14,460       15,127
1960:05        0,988       14,445       15,127
1960:06        0,980       14,475       15,157
1960:07        0,976       14,460       15,171
1960:08        0,970       14,504       15,171
1960:09        0,978       14,563       15,186
1960:10        0,976       14,680       15,245
1960:11        0,978       14,695       15,260
1960:12        0,996       14,695       15,274
1961:01        0,991       14,657       15,260
1961:02        0,988       14,618       15,274
1961:03        0,989       14,637       15,274
1961:04        0,988       14,637       15,274
1961:05        0,988       14,618       15,260
1961:06        1,035       14,618       15,289
1961:07        1,031       14,618       15,348
1961:08        1,031       14,637       15,333
1961:09        1,030       14,637       15,377
1961:10        1,033       14,657       15,377
1961:11        1,042       14,715       15,377
1961:12        1,043       14,715       15,362
1962:01        1,047       14,715       15,362
1962:02        1,050       14,715       15,407
1962:03        1,050       14,715       15,436
1962:04        1,050       14,735       15,465
1962:05        1,090       14,754       15,465
1962:06        1,082       14,794       15,480
1962:07        1,078       14,852       15,510
1962:08        1,077       14,891       15,510
1962:09        1,077       14,852       15,598
1962:10        1,076       14,911       15,583
1962:11        1,072       14,950       15,583
1962:12        1,077       14,950       15,554
1963:01        1,076       14,969       15,583
1963:02        1,077       14,969       15,598
1963:03        1,078       14,969       15,612
1963:04        1,076       15,008       15,612
1963:05        1,078       15,008       15,612
1963:06        1,078       15,067       15,671
1963:07        1,081       15,126       15,745
1963:08        1,083       15,184       15,745
1963:09        1,078       15,126       15,745
1963:10        1,078       15,145       15,759
1963:11        1,078       15,184       15,789
1963:12        1,081       15,223       15,818
1964:01        1,080       15,223       15,833
1964:02        1,080       15,243       15,818
1964:03        1,081       15,263       15,833
1964:04        1,083       15,302       15,848
1964:05        1,081       15,302       15,848
1964:06        1,081       15,341       15,877
1964:07        1,080       15,438       15,921
1964:08        1,078       15,419       15,921
1964:09        1,075       15,380       15,936
1964:10        1,075       15,380       15,951
1964:11        1,073       15,419       15,980
1964:12        1,074       15,517       15,995
1965:01        1,075       15,536       16,001
1965:02        1,079       15,556       16,001
1965:03        1,079       15,575       16,018
1965:04        1,079       15,614       16,069
1965:05        1,080       15,653       16,104
1965:06        1,083       15,771       16,189
1965:07        1,081       15,829       16,206
1965:08        1,076       15,810       16,172
1965:09        1,076       15,771       16,206
1965:10        1,075       15,790       16,223
1965:11        1,075       15,888       16,257
1965:12        1,075       15,966       16,309
1966:01        1,075       16,005       16,309
1966:02        1,077       16,122       16,411
1966:03        1,077       16,142       16,463
1966:04        1,076       16,240       16,531
1966:05        1,078       16,259       16,548
1966:06        1,076       16,298       16,599
1966:07        1,074       16,357       16,651
1966:08        1,076       16,435       16,736
1966:09        1,078       16,455       16,770
1966:10        1,081       16,474       16,839
1966:11        1,084       16,494       16,839
1966:12        1,084       16,533       16,856
1967:01        1,079       16,552       16,856
1967:02        1,082       16,572       16,873
1967:03        1,083       16,611       16,907
1967:04        1,083       16,767       16,941
1967:05        1,081       16,787       16,992
1967:06        1,080       16,885       17,044
1967:07        1,076       17,041       17,129
1967:08        1,076       17,119       17,181
1967:09        1,074       17,080       17,215
1967:10        1,073       17,060       17,266
1967:11        1,080       17,119       17,317
1967:12        1,081       17,217       17,369
1968:01        1,087       17,295       17,437
1968:02        1,087       17,314       17,488
1968:03        1,083       17,373       17,574
1968:04        1,078       17,471       17,625
1968:05        1,078       17,471       17,676
1968:06        1,076       17,529       17,796
1968:07        1,073       17,647       17,864
1968:08        1,073       17,686       17,916
1968:09        1,073       17,744       17,967
1968:10        1,073       17,783       18,069
1968:11        1,073       17,862       18,138
1968:12        1,073       17,920       18,189
1969:01        1,073       17,959       18,240
1969:02        1,076       17,959       18,309
1969:03        1,076       18,057       18,463
1969:04        1,076       18,252       18,582
1969:05        1,078       18,292       18,634
1969:06        1,081       18,448       18,753
1969:07        1,078       18,526       18,839
1969:08        1,077       18,585       18,924
1969:09        1,079       18,546       19,010
1969:10        1,077       18,585       19,078
1969:11        1,074       18,663       19,181
1969:12        1,073       18,741       19,300
1970:01        1,073       18,780       19,369
1970:02        1,073       18,858       19,471
1970:03        1,073       18,878       19,574
1970:04        1,073       18,995       19,693
1970:05        1,074       18,995       19,779
1970:06        1,034       19,034       19,882
1970:07        1,026       19,112       19,950
1970:08        1,018       19,112       19,984
1970:09        1,018       19,073       20,087
1970:10        1,020       19,093       20,189
1970:11        1,019       19,093       20,258
1970:12        1,011       19,015       20,360
1971:01        1,008       19,093       20,377
1971:02        1,007       19,171       20,411
1971:03        1,008       19,230       20,480
1971:04        1,009       19,366       20,548
1971:05        1,011       19,445       20,651
1971:06        1,023       19,484       20,770
1971:07        1,018       19,640       20,822
1971:08        1,014       19,777       20,873
1971:09        1,009       19,738       20,890
1971:10        1,003       19,757       20,924
1971:11        1,003       19,835       20,959
1971:12        1,002       19,972       21,044
1972:01        1,006       20,031       21,061
1972:02        1,001       20,109       21,164
1972:03        0,997       20,129       21,198
1972:04        0,992       20,246       21,249
1972:05        0,981       20,265       21,318
1972:06        0,985       20,285       21,369
1972:07        0,983       20,539       21,454
1972:08        0,983       20,695       21,488
1972:09        0,983       20,773       21,574
1972:10        0,983       20,793       21,642
1972:11        0,994       20,852       21,694
1972:12        0,996       20,988       21,762
1973:01        1,001       21,164       21,830
1973:02        0,994       21,282       21,984
1973:03        0,999       21,340       22,189
1973:04        1,003       21,575       22,343
1973:05        0,995       21,731       22,480
1973:06        0,998       21,926       22,634
1973:07        1,002       22,122       22,685
1973:08        1,005       22,415       23,095
1973:09        1,006       22,552       23,164
1973:10        0,999       22,610       23,352
1973:11        1,000       22,786       23,523
1973:12        0,996       22,904       23,677
1974:01        0,988       23,079       23,882
1974:02        0,969       23,314       24,189
1974:03        0,972       23,548       24,463
1974:04        0,960       23,724       24,600
1974:05        0,962       24,115       24,873
1974:06        0,972       24,428       25,113
1974:07        0,979       24,604       25,301
1974:08        0,988       24,838       25,625
1974:09        0,986       24,995       25,933
1974:10        0,985       25,229       26,155
1974:11        0,987       25,503       26,378
1974:12        0,991       25,757       26,566
1975:01        0,999       25,874       26,685
1975:02        0,998       26,069       26,873
1975:03        1,003       26,206       26,976
1975:04        1,019       26,343       27,113
1975:05        1,023       26,558       27,232
1975:06        1,031       26,949       27,455
1975:07        1,032       27,320       27,745
1975:08        1,032       27,594       27,831
1975:09        1,025       27,652       27,967
1975:10        1,017       27,906       28,138
1975:11        1,011       28,160       28,309
1975:12        1,016       28,199       28,429
1976:01        1,001       28,356       28,497
1976:02        0,985       28,454       28,566
1976:03        0,984       28,571       28,634
1976:04        0,979       28,688       28,754
1976:05        0,979       28,923       28,925
1976:06        0,969       29,059       29,079
1976:07        0,975       29,177       29,250
1976:08        0,981       29,313       29,386
1976:09        0,973       29,450       29,506
1976:10        0,972       29,646       29,626
1976:11        1,035       29,743       29,711
1976:12        1,009       29,841       29,797
1977:01        1,021       30,095       29,968
1977:02        1,047       30,369       30,275
1977:03        1,057       30,681       30,463
1977:04        1,047       30,857       30,703
1977:05        1,051       31,111       30,874
1977:06        1,060       31,326       31,079
1977:07        1,069       31,619       31,216
1977:08        1,075       31,756       31,335
1977:09        1,073       31,932       31,455
1977:10        1,108       32,245       31,540
1977:11        1,107       32,460       31,694
1977:12        1,094       32,675       31,814
1978:01        1,108       32,792       32,002
1978:02        1,115       33,007       32,207
1978:03        1,132       33,378       32,446
1978:04        1,131       33,456       32,737
1978:05        1,123       33,925       33,045
1978:06        1,125       34,218       33,387
1978:07        1,131       34,727       33,626
1978:08        1,151       34,746       33,814
1978:09        1,183       34,687       34,070
1978:10        1,167       35,039       34,344
1978:11        1,172       35,332       34,532
1978:12        1,186       35,430       34,686
1979:01        1,201       35,704       34,994
1979:02        1,194       36,036       35,404
1979:03        1,161       36,466       35,746
1979:04        1,142       36,720       36,156
1979:05        1,161       37,072       36,600
1979:06        1,168       37,248       37,028
1979:07        1,170       37,541       37,421
1979:08        1,166       37,677       37,797
1979:09        1,161       38,010       38,190
1979:10        1,185       38,283       38,532
1979:11        1,170       38,655       38,891
1979:12        1,168       38,889       39,301
1980:01        1,158       39,104       39,866
1980:02        1,145       39,436       40,413
1980:03        1,191       39,866       40,994
1980:04        1,188       40,101       41,455
1980:05        1,159       40,570       41,866
1980:06        1,151       41,019       42,327
1980:07        1,162       41,332       42,361
1980:08        1,157       41,723       42,635
1980:09        1,171       42,094       43,028
1980:10        1,176       42,465       43,404
1980:11        1,190       42,993       43,797
1980:12        1,195       43,247       44,174
1981:01        1,194       43,830       44,533
1981:02        1,201       44,259       44,994
1981:03        1,187       44,811       45,319
1981:04        1,196       45,179       45,610
1981:05        1,204       45,546       45,986
1981:06        1,201       46,282       46,379
1981:07        1,235       46,650       46,909
1981:08        1,202       47,018       47,268
1981:09        1,207       47,385       47,746
1981:10        1,203       47,815       47,849
1981:11        1,177       48,244       47,986
1981:12        1,186       48,489       48,122
1982:01        1,197       48,795       48,293
1982:02        1,230       49,408       48,447
1982:03        1,230       50,021       48,396
1982:04        1,219       50,267       48,601
1982:05        1,244       51,002       49,080
1982:06        1,293       51,493       49,678
1982:07        1,256       51,738       49,952
1982:08        1,239       51,983       50,054
1982:09        1,236       52,290       50,140
1982:10        1,226       52,596       50,276
1982:11        1,237       52,964       50,191
1982:12        1,229       52,964       49,986
1983:01        1,237       52,841       50,105
1983:02        1,229       53,086       50,123
1983:03        1,234       53,638       50,157
1983:04        1,226       53,638       50,516
1983:05        1,230       53,761       50,789
1983:06        1,227       54,374       50,960
1983:07        1,234       54,558       51,165
1983:08        1,234       54,864       51,336
1983:09        1,232       54,864       51,593
1983:10        1,233       55,171       51,730
1983:11        1,239       55,171       51,815
1983:12        1,244       55,355       51,883
1984:01        1,249       55,661       52,174
1984:02        1,252       55,968       52,413
1984:03        1,277       56,090       52,533
1984:04        1,285       56,274       52,789
1984:05        1,295       56,335       52,943
1984:06        1,319       56,581       53,114
1984:07        1,311       56,887       53,285
1984:08        1,297       56,887       53,507
1984:09        1,318       56,948       53,764
1984:10        1,315       57,071       53,901
1984:11        1,324       57,439       53,901
1984:12        1,321       57,439       53,935
1985:01        1,327       57,684       54,037
1985:02        1,383       58,052       54,260
1985:03        1,367       58,174       54,499
1985:04        1,366       58,420       54,721
1985:05        1,373       58,542       54,926
1985:06        1,359       58,910       55,097
1985:07        1,354       59,094       55,183
1985:08        1,366       59,155       55,302
1985:09        1,371       59,278       55,473
1985:10        1,367       59,462       55,644
1985:11        1,384       59,707       55,832
1985:12        1,398       59,952       55,969
1986:01        1,423       60,259       56,140
1986:02        1,421       60,443       55,986
1986:03        1,397       60,626       55,730
1986:04        1,374       60,688       55,610
1986:05        1,380       60,994       55,781
1986:06        1,387       61,056       56,055
1986:07        1,379       61,546       56,072
1986:08        1,388       61,730       56,174
1986:09        1,389       61,730       56,448
1986:10        1,390       62,036       56,499
1986:11        1,384       62,343       56,550
1986:12        1,381       62,465       56,602
1987:01        1,339       62,588       56,943
1987:02        1,333       62,895       57,166
1987:03        1,305       63,140       57,422
1987:04        1,337       63,446       57,730
1987:05        1,339       63,814       57,901
1987:06        1,331       63,998       58,140
1987:07        1,328       64,427       58,260
1987:08        1,319       64,488       58,585
1987:09        1,309       64,488       58,875
1987:10        1,316       64,734       59,029
1987:11        1,308       64,979       59,115
1987:12        1,300       65,040       59,091
1988:01        1,276       65,163       59,245
1988:02        1,260       65,408       59,398
1988:03        1,234       65,776       59,654
1988:04        1,229       65,960       59,962
1988:05        1,234       66,389       60,166
1988:06        1,213       66,511       60,422
1988:07        1,211       66,879       60,679
1988:08        1,240       67,063       60,935
1988:09        1,217       67,124       61,344
1988:10        1,220       67,431       61,549
1988:11        1,189       67,615       61,600
1988:12        1,193       67,615       61,703
1989:01        1,183       67,983       62,010
1989:02        1,199       68,412       62,266
1989:03        1,193       68,779       62,624
1989:04        1,186       68,963       63,034
1989:05        1,206       69,699       63,392
1989:06        1,198       70,067       63,546
1989:07        1,181       70,496       63,700
1989:08        1,176       70,557       63,802
1989:09        1,178       70,680       64,007
1989:10        1,174       70,925       64,314
1989:11        1,163       71,170       64,468
1989:12        1,158       71,109       64,570
1990:01        1,186       71,722       65,236
1990:02        1,192       72,151       65,543
1990:03        1,170       72,396       65,901
1990:04        1,165       72,396       66,004
1990:05        1,174       72,764       66,158
1990:06        1,166       73,070       66,516
1990:07        1,153       73,438       66,772
1990:08        1,155       73,500       67,386
1990:09        1,157       73,683       67,950
1990:10        1,167       74,297       68,359
1990:11        1,166       74,726       68,513
1990:12        1,160       74,664       68,513
1991:01        1,163       76,626       68,923
1991:02        1,150       76,626       69,025
1991:03        1,159       76,932       69,127
1991:04        1,151       76,932       69,230
1991:05        1,145       77,300       69,435
1991:06        1,142       77,668       69,639
1991:07        1,152       77,729       69,742
1991:08        1,142       77,791       69,947
1991:09        1,132       77,668       70,254
1991:10        1,123       77,545       70,356
1991:11        1,135       77,852       70,561
1991:12        1,156       77,484       70,612
1992:01        1,175       77,852       70,715
1992:02        1,182       77,913       70,971
1992:03        1,190       78,158       71,329
1992:04        1,196       78,220       71,432
1992:05        1,205       78,342       71,534
1992:06        1,197       78,526       71,790
1992:07        1,184       78,710       71,944
1992:08        1,195       78,710       72,149
1992:09        1,248       78,649       72,353
1992:10        1,240       78,771       72,609
1992:11        1,286       79,139       72,712
1992:12        1,271       79,139       72,661
1993:01        1,270       79,446       73,019
1993:02        1,254       79,691       73,275
1993:03        1,257       79,630       73,531
1993:04        1,270       79,630       73,736
1993:05        1,271       79,752       73,838
1993:06        1,282       79,814       73,941
1993:07        1,284       79,997       73,941
1993:08        1,321       80,059       74,146
1993:09        1,336       80,120       74,299
1993:10        1,322       80,243       74,606
1993:11        1,337       80,610       74,658
1993:12        1,324       80,488       74,658
1994:01        1,327       80,488       74,862
1994:02        1,352       79,875       75,118
1994:03        1,384       79,752       75,374
1994:04        1,382       79,814       75,477
1994:05        1,385       79,630       75,528
1994:06        1,382       79,814       75,784
1994:07        1,383       80,120       75,989
1994:08        1,371       80,181       76,296
1994:09        1,341       80,243       76,501
1994:10        1,353       80,120       76,552
1994:11        1,375       80,549       76,655
1994:12        1,403       80,672       76,655
1995:01        1,409       80,954       76,962
1995:02        1,394       81,327       77,269
1995:03        1,399       81,514       77,525
1995:04        1,360       81,795       77,781
1995:05        1,370       81,982       77,935
1995:06        1,373       81,982       78,088
1995:07        1,370       82,169       78,088
1995:08        1,343       81,982       78,293
1995:09        1,344       82,075       78,447
1995:10        1,340       81,982       78,703
1995:11        1,358       82,262       78,652
1995:12        1,365       82,075       78,600
1996:01        1,374       82,262       79,061
1996:02        1,372       82,356       79,317
1996:03        1,363       82,730       79,727
1996:04        1,361       82,917       80,034
1996:05        1,370       83,197       80,188
1996:06        1,365       83,197       80,239
1996:07        1,375       83,197       80,393
1996:08        1,368       83,197       80,546
1996:09        1,362       83,291       80,802
1996:10        1,341       83,477       81,058
1996:11        1,349       83,851       81,212
1996:12        1,370       83,851       81,212
1997:01        1,347       84,038       81,468
1997:02        1,367       84,225       81,724
1997:03        1,384       84,319       81,929
1997:04        1,397       84,319       82,031
1997:05        1,381       84,412       81,980
1997:06        1,381       84,599       82,082
1997:07        1,381       84,599       82,185
1997:08        1,389       84,693       82,338
1997:09        1,382       84,693       82,543
1997:10        1,409       84,693       82,748
1997:11        1,424       84,599       82,697
1997:12        1,429       84,506       82,594
1998:01        1,456       84,973       82,748
1998:02        1,424       85,067       82,902
1998:03        1,417       85,160       83,055
1998:04        1,430       85,067       83,209
1998:05        1,457       85,347       83,363
1998:06        1,472       85,441       83,465
1998:07        1,511       85,441       83,567
1998:08        1,572       85,441       83,670
1998:09        1,526       85,254       83,772
1998:10        1,543       85,628       83,977
1998:11        1,524       85,628       83,977
1998:12        1,531       85,347       83,926
1999:01        1,507       85,534       84,131
1999:02        1,507       85,628       84,233
1999:03        1,509       86,001       84,489
1999:04        1,458       86,469       85,104
1999:05        1,477       86,656       85,104
1999:06        1,472       86,843       85,104
1999:07        1,506       87,030       85,360
1999:08        1,496       87,217       85,564
1999:09        1,470       87,497       85,974
1999:10        1,471       87,591       86,128
1999:11        1,473       87,497       86,179
1999:12        1,443       87,591       86,179
2000:01        1,451       87,404       86,435
2000:02        1,449       87,965       86,947
2000:03        1,454       88,619       87,664
2000:04        1,481       88,338       87,715
2000:05        1,498       88,712       87,817
2000:06        1,479       89,273       88,278
2000:07        1,487       89,554       88,483
2000:08        1,472       89,460       88,483
2000:09        1,507       89,834       88,944
2000:10        1,527       90,021       89,098
2000:11        1,536       90,302       89,149
2000:12        1,500       90,395       89,098
2001:01        1,500       90,021       89,661
2001:02        1,526       90,488       90,019
2001:03        1,577       90,769       90,224
2001:04        1,536       91,423       90,583
2001:05        1,546       92,171       90,992
2001:06        1,518       92,265       91,146
2001:07        1,530       91,984       90,890
2001:08        1,548       91,984       90,890
2001:09        1,579       92,171       91,299
2001:10        1,587       91,704       90,992
2001:11        1,572       90,862       90,839
2001:12        1,593       91,049       90,480
2002:01        1,592       91,236       90,685
2002:02        1,605       91,797       91,043
2002:03        1,594       92,452       91,555
2002:04        1,568       93,012       92,067
2002:05        1,528       93,199       92,067
2002:06        1,519       93,386       92,119
2002:07        1,584       93,947       92,221
2002:08        1,559       94,321       92,528
2002:09        1,586       94,321       92,682
2002:10        1,560       94,602       92,836
2002:11        1,565       94,882       92,836
2002:12        1,580       94,508       92,631
2003:01        1,529       95,349       93,040
2003:02        1,487       96,097       93,757
2003:03        1,469       96,378       94,321
2003:04        1,434       95,723       94,116
2003:05        1,371       95,817       93,962
2003:06        1,355       95,817       94,064
2003:07        1,407       95,910       94,167
2003:08        1,385       96,191       94,525
2003:09        1,350       96,378       94,833
2003:10        1,320       96,097       94,730
2003:11        1,297       96,378       94,474
2003:12        1,292       96,471       94,372
2004:01        1,326       96,565       94,833
2004:02        1,340       96,752       95,345
2004:03        1,311       97,126       95,959
2004:04        1,371       97,313       96,266
2004:05        1,366       98,154       96,830
2004:06        1,340       98,247       97,137
2004:07        1,329       98,154       96,983
2004:08        1,317       97,967       97,034
2004:09        1,264       98,154       97,239
2004:10        1,221       98,341       97,751
2004:11        1,185       98,715       97,802
2004:12        1,204       98,528       97,444
2005:01        1,215       98,434       97,649
2005:02        1,231       98,808       98,212
2005:03        1,210       99,369       98,980
2005:04        1,257       99,650       99,646
2005:05        1,251       99,743       99,543
2005:06        1,226       99,930       99,595
2005:07        1,226      100,117      100,055
2005:08        1,189      100,491      100,568
2005:09        1,161      101,332      101,796
2005:10        1,180      100,865      102,001
2005:11        1,167      100,678      101,182
2005:12        1,165      100,584      100,772
2006:01        1,144      101,145      101,540
2006:02        1,138      100,958      101,745
2006:03        1,167      101,519      102,309
2006:04        1,120      102,080      103,179
2006:05        1,100      102,547      103,691
2006:06        1,115      102,360      103,896
2006:07        1,131      102,454      104,203
2006:08        1,107      102,641      104,408
2006:09        1,115      102,080      103,896
2006:10        1,123      101,893      103,333
2006:11        1,136      102,080      103,179
2006:12        1,165      102,267      103,333
2007:01        1,179      102,267      103,648
2007:02        1,170      103,015      104,203
2007:03        1,153      103,856      105,151
2007:04        1,115      104,323      105,835
2007:05        1,070      104,791      106,481
2007:06        1,063      104,604      106,688
2007:07        1,066      104,697      106,660
2007:08        1,056      104,417      106,465
2007:09        0,996      104,604      106,758
2007:10        0,950      104,323      106,987
2007:11        1,001      104,604      107,622
2007:12        0,988      104,697      107,550
2008:01        1,002      104,510      108,084
2008:02        0,980      104,884      108,398
2008:03        1,028      105,258      109,338
2008:04        1,010      106,100      110,001
2008:05        0,994      107,128      110,927
2008:06        1,019      107,876      112,045
2008:07        1,026      108,250      112,634
2008:08        1,063      108,063      112,184
2008:09        1,060      108,156      112,029
2008:10        1,217      107,034      110,897
2008:11        1,237      106,660      108,773
2008:12        1,225      105,913      107,648
2009:01        1,236      105,632      108,117
2009:02        1,271      106,380      108,654
2009:03        1,260      106,567      108,919
2009:04        1,194      106,473      109,191
2009:05        1,096      107,221      109,506
2009:06        1,158      107,595      110,447
2009:07        1,079      107,221      110,271
2009:08                                       
2009:09                                       
2009:10                                       
2009:11                                       
2009:12                                       

? open semic.csv
aplicando /home/cottrell/stats/test-gretl/csv/semic.csv...
usando como delimitador ';'
   línea más larga: 43 caracteres
   primer campo: 'obs'
...parece ser una etiqueta de observación
   número de columnas = 5
   número de variables: 4
...número de observaciones que no están en blanco: 157
escaneando para obtener los nombres de las variables...
   línea: obs;yield10yr;urate_recent;ulc_blc;ulc_bva
escaneando para las etiquetas de fila y los datos...
   etiqueta de la primera fila "1970Q1", última etiqueta "2008Q4"
tratando de aplicar etiquetas de filas como fechas...
   1970: probablemente un año... trimestre 1?
tomando la información sobre fechas desde las etiquetas de filas

Listando 5 variables:
  0) const           1) yield10yr       2) urate_recent    3) ulc_blc       
  4) ulc_bva       

? print --byobs

          yield10yr urate_recent      ulc_blc      ulc_bva

1970:1         7,92                                       
1970:2         8,25                                       
1970:3         8,38                                       
1970:4         8,34                                       
1971:1         7,86                                       
1971:2         7,93                                       
1971:3         8,03                                       
1971:4         7,85                                       
1972:1         7,59                                       
1972:2         7,55                                       
1972:3         7,58                                       
1972:4         7,81                                       
1973:1         7,98                                       
1973:2         8,31                                       
1973:3         8,60                                       
1973:4         8,72                                       
1974:1         9,34                                       
1974:2        10,06                                       
1974:3        10,70                                       
1974:4        10,59                                       
1975:1         9,90                                       
1975:2         9,56                                       
1975:3         9,44                                       
1975:4         9,29                                       
1976:1         9,43                                       
1976:2        10,10                                       
1976:3        10,33                                       
1976:4        10,44                                       
1977:1        10,31                                       
1977:2        10,22                                       
1977:3        10,08                                       
1977:4         9,98                                       
1978:1         9,72                                       
1978:2         9,58                                       
1978:3         9,58                                       
1978:4         9,77                                       
1979:1         9,73                                       
1979:2        10,18                                       
1979:3        10,60                                       
1979:4        11,13                                       
1980:1        12,09                                       
1980:2        12,31                                       
1980:3        12,25                                       
1980:4        12,84                                       
1981:1        13,36                                       
1981:2        14,52                                       
1981:3        15,22                                       
1981:4        15,10                                       
1982:1        14,78                                       
1982:2        14,52                                       
1982:3        14,27                                       
1982:4        13,68                                       
1983:1        13,00                                       
1983:2        12,94                                       
1983:3        13,13                                       
1983:4        13,09                                       
1984:1        12,61                                       
1984:2        12,51                                       
1984:3        12,21                                       
1984:4        11,42                                       
1985:1        10,95                                       
1985:2        10,84                                       
1985:3        10,67                                       
1985:4        10,29                                       
1986:1         9,77                                       
1986:2         8,60                                       
1986:3         8,40                                       
1986:4         8,47                                       
1987:1         8,47                                       
1987:2         8,69                                       
1987:3         9,47                                       
1987:4         9,61                                       
1988:1         8,99                                       
1988:2         8,88                                       
1988:3         9,03                                       
1988:4         8,98                                       
1989:1         9,40                                       
1989:2         9,63                                       
1989:3         9,60                                       
1989:4        10,09                                       
1990:1        10,81                                       
1990:2        10,79                                       
1990:3        10,89                                       
1990:4        10,98                                       
1991:1        10,55                                       
1991:2        10,05                                       
1991:3        10,14                                       
1991:4         9,89                                       
1992:1         9,58                                       
1992:2         9,68                                       
1992:3        10,05                                       
1992:4        10,01                                       
1993:1         9,42                                       
1993:2         8,99                                       
1993:3         7,98                                       
1993:4         7,31                                       
1994:1         6,97                                       
1994:2         7,86                                       
1994:3         8,73                                       
1994:4         9,14                                       
1995:1         9,32                    771804      1288440
1995:2         8,93                    826476      1328480
1995:3         8,51                    817232      1314629
1995:4         8,15                    919572      1362232
1996:1         7,64                    805306      1304510
1996:2         7,54                    857634      1347454
1996:3         7,28                    844467      1339636
1996:4         6,47                    938762      1386532
1997:1         6,20                    816055      1319359
1997:2         6,22                    868281      1387003
1997:3         5,81                    844624      1376212
1997:4         5,60                    953053      1433123
1998:1         5,12                    827303      1376100
1998:2         4,99                    886565      1419056
1998:3         4,56                    869706      1413125
1998:4         4,15                    990098      1459206
1999:1         3,99         9,70       865595      1403201
1999:2         4,26         9,47       929534      1453033
1999:3         5,05         9,27       910479      1451140
1999:4         5,32         9,00      1030869      1514882
2000:1         5,62         8,70       912329      1473903
2000:2         5,42         8,43       975296      1515806
2000:3         5,44         8,27       955905      1502429
2000:4         5,27         8,07      1078174      1561437
2001:1         4,99         8,03       954800      1517827
2001:2         5,19         8,00      1017755      1549196
2001:3         5,12         8,00       993123      1527511
2001:4         4,81         8,03      1118593      1579898
2002:1         5,14         8,13       990251      1520721
2002:2         5,26         8,23      1054598      1569889
2002:3         4,76         8,33      1025194      1549262
2002:4         4,54         8,47      1149786      1597270
2003:1         4,15         8,73      1015529      1535712
2003:2         3,96         8,83      1083262      1571057
2003:3         4,17         8,90      1055103      1559351
2003:4         4,37         8,90      1182022      1616009
2004:1         4,15         8,90      1049316      1567422
2004:2         4,36         9,00      1120174      1614628
2004:3         4,21         8,87      1078903      1594020
2004:4         3,85         8,80      1214100      1650711
2005:1         3,67         8,80      1077227      1584194
2005:2         3,41         8,63      1150858      1651258
2005:3         3,26         8,43      1108752      1623267
2005:4         3,42         8,30      1255544      1677234
2006:1         3,56         8,10      1116204      1635353
2006:2         4,05         7,83      1199517      1687990
2006:3         3,97         7,77      1154171      1666666
2006:4         3,86         7,60      1300315      1729640
2007:1         4,08         7,23      1166144      1689518
2007:2         4,43         6,97      1249216      1736150
2007:3         4,47         7,03      1200266      1713970
2007:4         4,34         7,23      1360974      1773308
2008:1         4,15         7,20      1222426      1720689
2008:2         4,51         7,37      1308630      1771722
2008:3         4,61         7,47                          
2008:4         4,21                                       

? open sven.csv
aplicando /home/cottrell/stats/test-gretl/csv/sven.csv...
usando como delimitador ','
   línea más larga: 42 caracteres
   primer campo: 'obs'
...parece ser una etiqueta de observación
   número de columnas = 6
   número de variables: 5
...número de observaciones que no están en blanco: 26
escaneando para obtener los nombres de las variables...
   línea: obs,Erster,Hoch,Tief,Schlusskurs,Volumen
escaneando para las etiquetas de fila y los datos...
   etiqueta de la primera fila "2007/11/19", última etiqueta "2007/12/21"
tratando de aplicar etiquetas de filas como fechas...
Intentando la estructura de fechas AAAAMMDD
Podría ser 2007/11/19 - 2007/12/21
Observaciones: 25; días en la muestra: 25
Filas diarias ausentes: 0
tomando la información sobre fechas desde las etiquetas de filas

Listando 6 variables:
  0) const          1) Erster         2) Hoch           3) Tief         
  4) Schlusskurs    5) Volumen      

? print --byobs

                 Erster         Hoch         Tief  Schlusskurs      Volumen

2007-11-19         7623         7623         7499         7512      8486320
2007-11-20         7550         7634         7524         7630      8936710
2007-11-21         7570         7570         7475         7518      9440360
2007-11-22         7539         7581         7488         7562      6097320
2007-11-23         7565         7620         7549         7609      5821650
2007-11-26         7642         7675         7560         7567      5920870
2007-11-27         7537         7546         7445         7531      7092700
2007-11-28         7552         7729         7537         7724      8682860
2007-11-29         7755         7780         7729         7765      6806350
2007-11-30         7772         7894         7772         7871      7630840
2007-12-03         7859         7890         7826         7837      5563200
2007-12-04         7842         7850         7785         7809      7430510
2007-12-05         7851         7952         7843         7945      5860370
2007-12-06         7958         7998         7911         7941      6490070
2007-12-07         7963         8010         7958         7994      7355580
2007-12-10         7973         8058         7955         8033      5988700
2007-12-11         8050         8067         7983         8009      6505060
2007-12-12         7969         8118         7928         8076      8666740
2007-12-13         8014         8034         7923         7928        0,000
2007-12-14         7949         7987         7873         7948      5644920
2007-12-17                                                7825        0,000
2007-12-18                                                7851        0,000
2007-12-19                                                7837        0,000
2007-12-20         7842         7919         7842         7869      5210910
2007-12-21         7913         8015         7913         8003     13832000

Hecho
